# IP ADDRESSES DETECTED IN ONGOING CYBERATTACK FROM MICROSOFT IRELAND TARGETING WORDPRESS SITES
104.41.222.105
104.41.226.225
104.41.227.25
104.41.227.30
13.69.128.230
13.69.130.129
13.69.136.248
13.69.154.13
13.69.154.13
13.69.187.228
13.69.191.50
13.69.215.72
13.70.199.249
13.74.103.156
13.74.103.171
13.74.103.177
13.74.113.25
13.74.114.127
13.74.114.201
13.74.115.168
13.74.116.122
13.74.116.182
13.74.116.182
13.74.117.218
13.74.119.246
13.74.126.95
13.74.145.44
13.74.147.38
13.74.147.57
13.74.152.69
13.74.153.103
13.74.154.40
13.74.156.157
13.74.159.207
13.74.159.207
13.74.176.27
13.74.181.28
13.74.182.94
13.74.183.50
13.74.186.255
13.74.189.29
13.74.248.102
13.74.251.116
13.74.255.0
13.74.255.218
13.74.34.23
13.74.37.149
13.74.48.129
13.74.48.205
13.74.49.211
13.74.50.112
13.74.50.26
13.74.50.28
13.74.53.200
13.74.53.223
13.74.55.151
13.74.56.195
13.74.56.248
13.74.61.213
13.74.63.110
13.74.64.76
13.74.98.109
13.74.98.118
13.74.98.138
13.74.98.172
13.74.98.187
13.74.98.221
13.74.98.230
13.74.98.237
13.74.98.244
13.74.98.41
13.74.99.108
13.74.99.115
13.74.99.135
13.74.99.89
13.79.103.69
13.79.130.252
13.79.146.132
13.79.146.150
13.79.150.137
13.79.152.15
13.79.152.15
13.79.152.229
13.79.153.224
13.79.156.110
13.79.156.54
13.79.158.14
13.79.158.21
13.79.158.36
13.79.159.5
13.79.159.60
13.79.161.236
13.79.162.56
13.79.162.6
13.79.164.62
13.79.165.1
13.79.165.173
13.79.17.158
13.79.17.197
13.79.173.253
13.79.174.26
13.79.174.59
13.79.174.62
13.79.184.194
13.79.184.27
13.79.184.27
13.79.185.89
13.79.186.224
13.79.189.147
13.79.189.231
13.79.191.22
13.79.191.26
13.79.193.103
13.79.218.236
13.79.218.236
13.79.224.36
13.79.225.115
13.79.226.168
13.79.228.175
13.79.228.175
13.79.229.148
13.79.229.201
13.79.229.207
13.79.231.196
13.79.26.104
13.79.32.63
13.79.34.90
13.79.35.124
13.79.35.58
13.79.36.136
13.79.36.140
13.79.36.141
13.79.36.142
13.79.38.162
13.79.4.147
13.79.57.5
13.79.62.167
13.79.62.188
13.79.62.203
13.79.62.236
13.79.63.18
13.79.63.2
13.79.88.114
13.79.89.32
13.79.89.45
13.79.90.234
13.79.90.255
13.79.91.107
13.79.91.132
13.79.91.63
13.79.91.69
13.79.91.95
13.79.92.84
13.79.93.109
13.79.93.239
13.94.100.62
13.94.100.63
13.94.101.137
13.94.101.58
13.94.101.93
13.94.102.121
13.94.102.164
13.94.102.185
13.94.102.239
13.94.103.53
13.94.64.155
13.94.65.132
13.94.65.240
13.94.93.135
13.94.93.14
13.94.93.23
13.94.95.64
13.94.96.164
13.94.96.165
13.94.97.107
13.94.99.204
137.135.135.117
137.135.243.158
138.91.58.14
138.91.59.210
138.91.63.143
168.61.84.174
168.61.84.221
168.61.86.190
168.61.90.162
168.63.47.173
168.63.49.9
20.107.203.122
20.107.204.99
20.107.242.60
20.123.7.49
20.166.13.132
20.166.16.152
20.166.17.237
20.166.34.182
20.166.35.192
20.166.35.69
20.166.35.92
20.166.68.250
20.166.68.36
20.223.161.211
20.223.163.103
20.223.185.15
20.223.189.158
20.223.203.9
20.223.215.110
20.223.245.246
20.234.105.173
20.234.105.3
20.234.108.59
20.234.33.96
20.234.82.123
20.238.107.82
20.238.107.82
20.238.62.0
20.238.63.50
20.238.73.65
20.238.76.223
20.238.82.2
20.238.88.202
23.101.56.253
23.102.56.99
23.102.60.59
4.210.100.15
4.210.113.94
4.210.124.55
4.210.124.67
4.210.125.227
4.210.76.59
4.210.81.142
4.210.90.57
4.210.93.65
4.231.173.222
4.231.232.199
4.245.184.250
4.245.190.15
4.245.195.53
4.245.206.41
4.245.209.176
4.245.233.23
4.245.249.25
4.245.255.40
40.113.17.125
40.113.66.197
40.113.67.51
40.113.67.94
40.113.73.232
40.113.88.139
40.113.88.148
40.113.88.169
40.113.88.212
40.113.88.237
40.113.88.49
40.113.88.55
40.113.93.228
40.113.93.254
40.127.104.240
40.127.183.167
40.127.189.111
40.127.207.184
40.69.196.22
40.69.197.137
40.69.206.230
40.69.208.202
40.69.216.183
40.69.216.191
40.69.22.175
40.69.221.27
40.69.221.92
40.69.222.159
40.69.26.168
40.69.30.185
40.69.31.108
40.69.33.98
40.69.34.125
40.69.34.137
40.69.34.143
40.69.34.186
40.69.34.20
40.69.34.25
40.69.34.36
40.69.35.143
40.69.35.158
40.69.35.199
40.69.36.117
40.69.36.177
40.69.37.134
40.69.37.186
40.69.37.74
40.69.62.91
40.69.63.173
40.69.63.221
40.69.72.208
40.69.73.22
40.69.88.20
40.69.89.145
40.69.90.6
40.85.84.73
40.87.129.217
40.87.131.18
52.138.140.234
52.138.141.223
52.138.171.199
52.138.177.101
52.138.181.236
52.138.183.127
52.138.193.149
52.138.194.127
52.138.199.49
52.138.200.76
52.138.203.231
52.138.203.76
52.138.204.139
52.138.205.109
52.138.205.30
52.138.207.42
52.138.209.152
52.138.213.213
52.138.218.159
52.138.218.168
52.138.221.165
52.138.221.58
52.138.222.37
52.138.222.83
52.158.33.91
52.164.121.219
52.164.121.235
52.164.126.142
52.164.126.26
52.164.126.59
52.164.187.139
52.164.187.77
52.164.187.85
52.164.189.192
52.164.190.132
52.164.201.216
52.164.203.124
52.164.203.188
52.164.203.234
52.164.203.245
52.164.210.51
52.164.217.30
52.164.218.143
52.164.225.109
52.164.227.166
52.164.228.25
52.164.228.25
52.164.231.119
52.164.231.119
52.164.231.122
52.164.231.122
52.164.231.228
52.164.231.65
52.164.231.78
52.164.231.90
52.164.231.90
52.164.240.11
52.164.240.114
52.164.241.135
52.164.244.173
52.164.245.139
52.164.246.139
52.164.248.13
52.164.250.149
52.164.250.212
52.169.10.219
52.169.106.164
52.169.106.164
52.169.11.52
52.169.11.75
52.169.12.2
52.169.12.210
52.169.120.105
52.169.120.220
52.169.121.13
52.169.122.177
52.169.122.177
52.169.124.237
52.169.125.231
52.169.125.232
52.169.125.248
52.169.126.111
52.169.127.0
52.169.127.120
52.169.138.20
52.169.138.30
52.169.14.191
52.169.14.198
52.169.14.240
52.169.140.147
52.169.140.71
52.169.144.36
52.169.158.10
52.169.158.219
52.169.158.236
52.169.16.180
52.169.16.39
52.169.161.115
52.169.176.147
52.169.177.189
52.169.18.110
52.169.18.233
52.169.182.122
52.169.184.107
52.169.184.79
52.169.184.92
52.169.186.235
52.169.187.130
52.169.188.23
52.169.188.252
52.169.188.86
52.169.189.65
52.169.19.37
52.169.191.40
52.169.193.217
52.169.199.46
52.169.20.129
52.169.200.104
52.169.201.218
52.169.201.218
52.169.204.203
52.169.209.241
52.169.21.225
52.169.210.222
52.169.217.103
52.169.217.58
52.169.220.221
52.169.220.86
52.169.220.93
52.169.221.23
52.169.221.36
52.169.221.4
52.169.221.49
52.169.223.211
52.169.227.122
52.169.227.48
52.169.23.27
52.169.23.36
52.169.23.40
52.169.23.40
52.169.23.5
52.169.234.159
52.169.238.203
52.169.248.62
52.169.25.52
52.169.251.159
52.169.251.174
52.169.255.142
52.169.255.83
52.169.31.103
52.169.31.135
52.169.35.6
52.169.37.124
52.169.38.86
52.169.67.157
52.169.74.144
52.169.76.16
52.169.76.189
52.169.78.125
52.169.78.226
52.169.8.167
52.169.8.40
52.169.83.21
52.169.87.230
52.169.88.68
52.169.9.89
52.178.129.130
52.178.129.56
52.178.137.117
52.178.137.21
52.178.138.12
52.178.139.216
52.178.139.251
52.178.140.121
52.178.141.232
52.178.142.186
52.178.142.221
52.178.142.234
52.178.143.154
52.178.143.173
52.178.143.183
52.178.151.162
52.178.153.10
52.178.156.184
52.178.156.64
52.178.157.114
52.178.159.175
52.178.177.114
52.178.177.173
52.178.177.18
52.178.178.137
52.178.178.154
52.178.178.162
52.178.178.162
52.178.178.184
52.178.178.48
52.178.179.158
52.178.179.18
52.178.179.210
52.178.179.43
52.178.179.50
52.178.179.60
52.178.179.62
52.178.179.62
52.178.179.72
52.178.182.177
52.178.184.169
52.178.184.177
52.178.185.185
52.178.190.30
52.178.191.176
52.178.191.184
52.178.191.197
52.178.191.197
52.178.192.133
52.178.192.141
52.178.192.188
52.178.193.251
52.178.195.46
52.178.195.88
52.178.196.224
52.178.197.124
52.178.197.191
52.178.197.66
52.178.200.50
52.178.201.21
52.178.201.244
52.178.201.88
52.178.204.127
52.178.205.152
52.178.205.6
52.178.207.196
52.178.207.75
52.178.212.111
52.178.212.111
52.178.213.218
52.178.213.73
52.178.215.4
52.178.217.230
52.178.218.185
52.178.219.51
52.178.219.77
52.178.220.65
52.178.222.98
52.178.223.60
52.236.36.209
52.236.37.119
52.236.37.55
52.236.37.80
74.178.88.68
94.245.105.127
